tau  hopf
0.00 0.577315
0.01 0.588236
0.03 0.601242
0.05 0.610758
0.10 0.627919
0.20 0.649550
0.30 0.663365
0.40 0.673090
0.50 0.680240
0.60 0.685801
0.80 0.693534
1.00 0.698540
1.50 0.705130
2.00 0.707916
2.50 0.709191
3.00 0.709806
3.50 0.710120
4.00 0.710270
5.00 0.710398
100. 0.710446